Meta:,"Description of lat long access for subspace/Obs, including startTime. t0 is s after startTime, t1 is s after t0."
Summ:,"During each time, Obs has known orbit Keplerian model and statistics."
Time,[s]
t0,t1
8658.873216076368,8702.07511707743
50228.86090505875,50272.02819764573
91797.24857886325,91842.98108859602
139240.86575843114,139286.26287228765
180811.75468518506,180854.81880733825
222381.58790887933,222424.91974460217
263949.7510473679,263995.9480849932
311393.8233022285,311438.81694593653
352964.6216456006,353007.58328406105
394534.29199829366,394577.8237038329
436102.22271659086,436148.9189289012
483546.77387552947,483591.39898343
525117.472556091,525160.3674707606
566686.9732150098,566730.7390212612
